freq,psd_x,psd_y,psd_z,psd_xyz
0.0,4.108e+03,8.067e+01,8.342e+01,4.272e+03
1.5,2.493e+04,2.822e+02,1.180e+02,2.533e+04
3.0,8.427e+03,2.953e+02,6.487e+01,8.787e+03
4.5,3.401e+03,2.591e+02,5.298e+01,3.714e+03
6.0,2.766e+03,2.365e+02,5.143e+01,3.054e+03
7.5,2.745e+03,1.895e+02,4.385e+01,2.978e+03
9.0,3.560e+03,1.954e+02,5.089e+01,3.806e+03
10.5,4.657e+03,1.746e+02,5.541e+01,4.887e+03
12.0,5.906e+03,1.809e+02,4.903e+01,6.136e+03
13.5,7.267e+03,1.947e+02,5.297e+01,7.515e+03
15.0,9.173e+03,1.905e+02,8.328e+01,9.447e+03
16.5,1.125e+04,1.942e+02,9.375e+01,1.154e+04
18.0,1.365e+04,1.910e+02,1.083e+02,1.395e+04
19.5,1.627e+04,1.723e+02,1.075e+02,1.655e+04
21.0,1.986e+04,1.951e+02,1.196e+02,2.017e+04
22.5,2.433e+04,1.955e+02,1.509e+02,2.467e+04
23.9,2.986e+04,1.727e+02,1.929e+02,3.022e+04
25.4,3.550e+04,1.826e+02,2.133e+02,3.589e+04
26.9,4.275e+04,1.894e+02,3.058e+02,4.325e+04
28.4,5.031e+04,2.056e+02,5.183e+02,5.103e+04
29.9,5.978e+04,2.201e+02,1.060e+03,6.106e+04
31.4,7.206e+04,2.231e+02,2.151e+03,7.443e+04
32.9,9.132e+04,2.445e+02,4.603e+03,9.617e+04
34.4,1.159e+05,2.518e+02,8.673e+03,1.248e+05
35.9,1.512e+05,2.081e+02,1.457e+04,1.660e+05
37.4,1.958e+05,1.979e+02,2.191e+04,2.179e+05
38.9,2.616e+05,2.495e+02,3.251e+04,2.943e+05
40.4,3.412e+05,4.508e+02,4.555e+04,3.872e+05
41.9,4.790e+05,8.970e+02,6.640e+04,5.463e+05
43.4,6.786e+05,1.705e+03,7.873e+04,7.590e+05
44.9,1.031e+06,2.613e+03,7.388e+04,1.107e+06
46.4,1.486e+06,3.702e+03,6.291e+04,1.552e+06
47.9,2.047e+06,6.800e+03,5.525e+04,2.109e+06
49.4,2.291e+06,9.026e+03,5.531e+04,2.356e+06
50.9,1.971e+06,1.010e+04,5.646e+04,2.037e+06
52.4,1.363e+06,8.732e+03,5.010e+04,1.421e+06
53.9,9.579e+05,9.626e+03,4.008e+04,1.008e+06
55.4,6.507e+05,1.315e+04,3.811e+04,7.019e+05
56.9,4.359e+05,1.881e+04,3.288e+04,4.876e+05
58.4,3.571e+05,2.391e+04,2.402e+04,4.050e+05
59.9,4.755e+05,2.635e+04,1.683e+04,5.187e+05
61.4,6.131e+05,2.891e+04,1.842e+04,6.604e+05
62.9,5.922e+05,2.807e+04,2.412e+04,6.444e+05
64.4,4.849e+05,2.621e+04,2.530e+04,5.364e+05
65.9,3.754e+05,2.571e+04,2.486e+04,4.260e+05
67.4,3.106e+05,2.468e+04,2.464e+04,3.599e+05
68.8,2.424e+05,2.390e+04,2.385e+04,2.901e+05
70.3,1.940e+05,2.757e+04,3.105e+04,2.527e+05
71.8,1.666e+05,2.702e+04,3.669e+04,2.303e+05
73.3,1.458e+05,2.412e+04,3.735e+04,2.073e+05
74.8,1.356e+05,2.414e+04,3.862e+04,1.984e+05
76.3,1.423e+05,2.476e+04,4.149e+04,2.085e+05
77.8,1.654e+05,2.320e+04,4.564e+04,2.343e+05
79.3,1.967e+05,2.186e+04,4.527e+04,2.639e+05
80.8,2.142e+05,1.945e+04,4.115e+04,2.748e+05
82.3,2.153e+05,1.776e+04,3.707e+04,2.702e+05
83.8,2.052e+05,1.854e+04,3.379e+04,2.575e+05
85.3,1.863e+05,2.017e+04,3.247e+04,2.390e+05
86.8,1.650e+05,2.020e+04,3.424e+04,2.194e+05
88.3,1.583e+05,2.121e+04,3.737e+04,2.169e+05
89.8,1.729e+05,2.565e+04,4.542e+04,2.440e+05
91.3,2.367e+05,2.808e+04,5.538e+04,3.201e+05
92.8,3.048e+05,3.035e+04,6.689e+04,4.021e+05
94.3,3.563e+05,3.335e+04,7.732e+04,4.669e+05
95.8,3.672e+05,3.565e+04,7.782e+04,4.807e+05
97.3,3.889e+05,3.904e+04,8.762e+04,5.156e+05
98.8,4.600e+05,3.957e+04,1.056e+05,6.051e+05
100.3,5.159e+05,4.176e+04,1.107e+05,6.684e+05
101.8,5.035e+05,4.123e+04,1.052e+05,6.499e+05
103.3,4.393e+05,4.025e+04,9.010e+04,5.696e+05
104.8,3.702e+05,3.926e+04,8.334e+04,4.928e+05
106.3,3.541e+05,4.179e+04,8.752e+04,4.834e+05
107.8,3.377e+05,4.427e+04,9.193e+04,4.739e+05
109.3,3.256e+05,4.386e+04,9.493e+04,4.644e+05
110.8,3.141e+05,4.328e+04,9.247e+04,4.499e+05
112.3,3.152e+05,4.416e+04,9.485e+04,4.542e+05
113.7,3.043e+05,4.531e+04,9.792e+04,4.475e+05
115.2,3.066e+05,4.717e+04,1.019e+05,4.556e+05
116.7,2.968e+05,4.889e+04,1.036e+05,4.494e+05
118.2,2.895e+05,5.390e+04,1.173e+05,4.607e+05
119.7,2.878e+05,5.458e+04,1.238e+05,4.661e+05
121.2,2.978e+05,5.433e+04,1.275e+05,4.797e+05
122.7,2.911e+05,5.297e+04,1.285e+05,4.726e+05
124.2,2.950e+05,5.374e+04,1.373e+05,4.861e+05
125.7,2.959e+05,5.115e+04,1.358e+05,4.828e+05
127.2,2.879e+05,5.036e+04,1.381e+05,4.764e+05
128.7,2.872e+05,5.087e+04,1.403e+05,4.784e+05
130.2,2.981e+05,5.055e+04,1.455e+05,4.942e+05
131.7,2.898e+05,4.882e+04,1.380e+05,4.765e+05
133.2,1.582e+05,3.023e+04,7.823e+04,2.667e+05
134.7,2.849e+04,1.169e+04,2.099e+04,6.117e+04
136.2,2.122e+04,1.115e+04,1.841e+04,5.078e+04
137.7,2.619e+04,1.274e+04,2.077e+04,5.970e+04
139.2,2.419e+04,1.504e+04,2.110e+04,6.033e+04
140.7,2.074e+04,1.403e+04,1.896e+04,5.374e+04
142.2,2.575e+04,1.597e+04,1.900e+04,6.072e+04
143.7,3.198e+04,1.747e+04,2.310e+04,7.255e+04
145.2,2.698e+04,2.143e+04,2.426e+04,7.267e+04
146.7,2.409e+04,2.282e+04,2.462e+04,7.153e+04
148.2,1.940e+04,1.848e+04,2.368e+04,6.155e+04
149.7,2.035e+04,1.974e+04,2.619e+04,6.629e+04
151.2,2.297e+04,1.752e+04,2.416e+04,6.466e+04
152.7,1.942e+04,1.799e+04,2.633e+04,6.374e+04
154.2,2.822e+04,1.981e+04,2.966e+04,7.769e+04
155.7,2.411e+04,1.789e+04,2.965e+04,7.165e+04
157.2,3.053e+04,2.389e+04,3.852e+04,9.294e+04
158.6,2.781e+04,2.323e+04,3.931e+04,9.035e+04
160.1,2.790e+04,3.004e+04,4.419e+04,1.021e+05
161.6,3.200e+04,3.151e+04,4.486e+04,1.084e+05
163.1,3.014e+04,2.903e+04,4.188e+04,1.010e+05
164.6,3.889e+04,3.092e+04,4.547e+04,1.153e+05
166.1,3.644e+04,2.905e+04,4.127e+04,1.068e+05
167.6,3.917e+04,3.043e+04,4.156e+04,1.112e+05
169.1,4.538e+04,3.337e+04,4.427e+04,1.230e+05
170.6,3.621e+04,2.671e+04,3.823e+04,1.012e+05
172.1,4.937e+04,3.619e+04,5.199e+04,1.375e+05
173.6,4.408e+04,3.010e+04,4.424e+04,1.184e+05
175.1,4.469e+04,3.523e+04,4.487e+04,1.248e+05
176.6,5.115e+04,4.257e+04,5.870e+04,1.524e+05
178.1,4.454e+04,3.835e+04,4.673e+04,1.296e+05
179.6,4.665e+04,5.065e+04,6.157e+04,1.589e+05
181.1,5.416e+04,6.478e+04,7.381e+04,1.927e+05
182.6,3.857e+04,4.864e+04,5.245e+04,1.396e+05
184.1,5.105e+04,8.074e+04,7.282e+04,2.046e+05
185.6,5.620e+04,8.950e+04,7.533e+04,2.210e+05
187.1,5.027e+04,8.569e+04,6.298e+04,1.989e+05
188.6,6.742e+04,1.407e+05,1.080e+05,3.161e+05
190.1,7.223e+04,1.502e+05,1.146e+05,3.371e+05
191.6,5.992e+04,1.212e+05,8.479e+04,2.659e+05
193.1,7.190e+04,1.846e+05,1.464e+05,4.030e+05
194.6,9.389e+04,2.505e+05,1.806e+05,5.250e+05
196.1,9.008e+04,1.941e+05,1.162e+05,4.004e+05
197.6,1.235e+05,2.929e+05,1.611e+05,5.775e+05
199.1,1.566e+05,4.576e+05,2.302e+05,8.444e+05
